  ** CALCULATED FRACTIONAL ABUNDANCES (/H2) ** 


   RADIUS         H              RH             GH             H+             H-             GH2            H2+            RH2            H3+            He          
      1.020E+014     0.000E+000     0.000E+000     0.000E+000     0.000E+000     0.000E+000     0.000E+000     0.000E+000     0.000E+000     0.000E+000     8.500E-002
      1.093E+014     3.841E-010     0.000E+000     0.000E+000     3.803E-015     6.465E-017     0.000E+000     3.024E-017     0.000E+000     3.035E-014     8.500E-002
      1.171E+014     7.437E-010     0.000E+000     0.000E+000     4.330E-015     7.423E-017     0.000E+000     3.472E-017     0.000E+000     3.470E-014     8.500E-002
      1.255E+014     1.085E-009     0.000E+000     0.000E+000     4.930E-015     8.522E-017     0.000E+000     3.986E-017     0.000E+000     3.967E-014     8.500E-002
      1.345E+014     1.413E-009     0.000E+000     0.000E+000     5.612E-015     9.784E-017     0.000E+000     4.576E-017     0.000E+000     4.534E-014     8.500E-002
      1.441E+014     1.730E-009     0.000E+000     0.000E+000     6.388E-015     1.123E-016     0.000E+000     5.254E-017     0.000E+000     5.183E-014     8.500E-002
      1.544E+014     2.038E-009     0.000E+000     0.000E+000     7.270E-015     1.290E-016     0.000E+000     6.033E-017     0.000E+000     5.924E-014     8.500E-002
      1.654E+014     2.339E-009     0.000E+000     0.000E+000     8.274E-015     1.481E-016     0.000E+000     6.927E-017     0.000E+000     6.770E-014     8.500E-002
      1.773E+014     2.637E-009     0.000E+000     0.000E+000     9.415E-015     1.700E-016     0.000E+000     7.953E-017     0.000E+000     7.736E-014     8.500E-002
      1.899E+014     2.938E-009     0.000E+000     0.000E+000     1.071E-014     1.951E-016     0.000E+000     9.131E-017     0.000E+000     8.840E-014     8.500E-002
      2.035E+014     3.249E-009     0.000E+000     0.000E+000     1.219E-014     2.240E-016     0.000E+000     1.048E-016     0.000E+000     1.010E-013     8.500E-002
      2.181E+014     3.577E-009     0.000E+000     0.000E+000     1.387E-014     2.572E-016     0.000E+000     1.204E-016     0.000E+000     1.154E-013     8.500E-002
      2.337E+014     3.925E-009     0.000E+000     0.000E+000     1.577E-014     2.953E-016     0.000E+000     1.382E-016     0.000E+000     1.318E-013     8.500E-002
      2.504E+014     4.296E-009     0.000E+000     0.000E+000     1.794E-014     3.390E-016     0.000E+000     1.587E-016     0.000E+000     1.506E-013     8.500E-002
      2.683E+014     4.694E-009     0.000E+000     0.000E+000     2.040E-014     3.892E-016     0.000E+000     1.822E-016     0.000E+000     1.720E-013     8.500E-002
      2.875E+014     5.120E-009     0.000E+000     0.000E+000     2.320E-014     4.468E-016     0.000E+000     2.092E-016     0.000E+000     1.965E-013     8.500E-002
      3.080E+014     5.574E-009     0.000E+000     0.000E+000     2.638E-014     5.129E-016     0.000E+000     2.402E-016     0.000E+000     2.244E-013     8.500E-002
      3.301E+014     6.058E-009     0.000E+000     0.000E+000     3.000E-014     5.888E-016     0.000E+000     2.757E-016     0.000E+000     2.562E-013     8.500E-002
      3.537E+014     6.573E-009     0.000E+000     0.000E+000     3.411E-014     6.759E-016     0.000E+000     3.166E-016     0.000E+000     2.926E-013     8.500E-002
      3.790E+014     7.118E-009     0.000E+000     0.000E+000     3.877E-014     7.759E-016     0.000E+000     3.635E-016     0.000E+000     3.341E-013     8.500E-002
      4.061E+014     7.695E-009     0.000E+000     0.000E+000     4.407E-014     8.906E-016     0.000E+000     4.174E-016     0.000E+000     3.814E-013     8.500E-002
      4.351E+014     8.305E-009     0.000E+000     0.000E+000     5.009E-014     1.022E-015     0.000E+000     4.792E-016     0.000E+000     4.354E-013     8.500E-002
      4.662E+014     8.950E-009     0.000E+000     0.000E+000     5.693E-014     1.174E-015     0.000E+000     5.502E-016     0.000E+000     4.970E-013     8.500E-002
      4.996E+014     9.633E-009     0.000E+000     0.000E+000     6.469E-014     1.347E-015     0.000E+000     6.317E-016     0.000E+000     5.672E-013     8.500E-002
      5.353E+014     1.036E-008     0.000E+000     0.000E+000     7.350E-014     1.546E-015     0.000E+000     7.253E-016     0.000E+000     6.474E-013     8.500E-002
      5.736E+014     1.113E-008     0.000E+000     0.000E+000     8.351E-014     1.775E-015     0.000E+000     8.327E-016     0.000E+000     7.387E-013     8.500E-002
      6.146E+014     1.196E-008     0.000E+000     0.000E+000     9.487E-014     2.037E-015     0.000E+000     9.561E-016     0.000E+000     8.429E-013     8.500E-002
      6.586E+014     1.286E-008     0.000E+000     0.000E+000     1.078E-013     2.338E-015     0.000E+000     1.098E-015     0.000E+000     9.618E-013     8.500E-002
      7.057E+014     1.382E-008     0.000E+000     0.000E+000     1.224E-013     2.684E-015     0.000E+000     1.260E-015     0.000E+000     1.097E-012     8.500E-002
      7.561E+014     1.485E-008     0.000E+000     0.000E+000     1.390E-013     3.081E-015     0.000E+000     1.447E-015     0.000E+000     1.252E-012     8.500E-002
      8.102E+014     1.597E-008     0.000E+000     0.000E+000     1.578E-013     3.536E-015     0.000E+000     1.661E-015     0.000E+000     1.428E-012     8.500E-002
      8.682E+014     1.718E-008     0.000E+000     0.000E+000     1.792E-013     4.058E-015     0.000E+000     1.908E-015     0.000E+000     1.628E-012     8.500E-002
      9.303E+014     1.848E-008     0.000E+000     0.000E+000     2.035E-013     4.657E-015     0.000E+000     2.190E-015     0.000E+000     1.857E-012     8.500E-002
      9.968E+014     1.988E-008     0.000E+000     0.000E+000     2.310E-013     5.344E-015     0.000E+000     2.515E-015     0.000E+000     2.117E-012     8.500E-002
      1.068E+015     2.139E-008     0.000E+000     0.000E+000     2.622E-013     6.133E-015     0.000E+000     2.887E-015     0.000E+000     2.414E-012     8.500E-002
      1.144E+015     2.302E-008     0.000E+000     0.000E+000     2.976E-013     7.038E-015     0.000E+000     3.315E-015     0.000E+000     2.752E-012     8.500E-002
      1.226E+015     2.477E-008     0.000E+000     0.000E+000     3.377E-013     8.075E-015     0.000E+000     3.806E-015     0.000E+000     3.138E-012     8.500E-002
      1.314E+015     2.665E-008     0.000E+000     0.000E+000     3.832E-013     9.266E-015     0.000E+000     4.370E-015     0.000E+000     3.576E-012     8.500E-002
      1.408E+015     2.867E-008     0.000E+000     0.000E+000     4.348E-013     1.063E-014     0.000E+000     5.017E-015     0.000E+000     4.076E-012     8.500E-002
      1.509E+015     3.084E-008     0.000E+000     0.000E+000     4.932E-013     1.220E-014     0.000E+000     5.761E-015     0.000E+000     4.645E-012     8.500E-002
      1.617E+015     3.318E-008     0.000E+000     0.000E+000     5.594E-013     1.399E-014     0.000E+000     6.614E-015     0.000E+000     5.293E-012     8.500E-002
      1.732E+015     3.568E-008     0.000E+000     0.000E+000     6.345E-013     1.605E-014     0.000E+000     7.594E-015     0.000E+000     6.030E-012     8.500E-002
      1.856E+015     3.837E-008     0.000E+000     0.000E+000     7.195E-013     1.842E-014     0.000E+000     8.719E-015     0.000E+000     6.870E-012     8.500E-002
      1.989E+015     4.125E-008     0.000E+000     0.000E+000     8.159E-013     2.112E-014     0.000E+000     1.001E-014     0.000E+000     7.825E-012     8.500E-002
      2.131E+015     4.434E-008     0.000E+000     0.000E+000     9.250E-013     2.423E-014     0.000E+000     1.149E-014     0.000E+000     8.913E-012     8.500E-002
      2.283E+015     4.767E-008     0.000E+000     0.000E+000     1.049E-012     2.779E-014     0.000E+000     1.320E-014     0.000E+000     1.015E-011     8.500E-002
      2.447E+015     5.126E-008     0.000E+000     0.000E+000     1.189E-012     3.186E-014     0.000E+000     1.515E-014     0.000E+000     1.156E-011     8.500E-002
      2.622E+015     5.516E-008     0.000E+000     0.000E+000     1.347E-012     3.653E-014     0.000E+000     1.740E-014     0.000E+000     1.316E-011     8.500E-002
      2.809E+015     5.942E-008     0.000E+000     0.000E+000     1.526E-012     4.187E-014     0.000E+000     1.997E-014     0.000E+000     1.498E-011     8.500E-002
      3.010E+015     6.419E-008     0.000E+000     0.000E+000     1.729E-012     4.797E-014     0.000E+000     2.293E-014     0.000E+000     1.705E-011     8.500E-002
      3.226E+015     6.968E-008     0.000E+000     0.000E+000     1.959E-012     5.493E-014     0.000E+000     2.633E-014     0.000E+000     1.941E-011     8.500E-002
      3.456E+015     7.627E-008     0.000E+000     0.000E+000     2.219E-012     6.285E-014     0.000E+000     3.023E-014     0.000E+000     2.208E-011     8.500E-002
      3.703E+015     8.460E-008     0.000E+000     0.000E+000     2.513E-012     7.181E-014     0.000E+000     3.471E-014     0.000E+000     2.513E-011     8.500E-002
      3.968E+015     9.573E-008     0.000E+000     0.000E+000     2.846E-012     8.189E-014     0.000E+000     3.985E-014     0.000E+000     2.859E-011     8.500E-002
      4.252E+015     1.114E-007     0.000E+000     0.000E+000     3.222E-012     9.312E-014     0.000E+000     4.576E-014     0.000E+000     3.252E-011     8.500E-002
      4.556E+015     1.342E-007     0.000E+000     0.000E+000     3.648E-012     1.054E-013     0.000E+000     5.253E-014     0.000E+000     3.699E-011     8.500E-002
      4.882E+015     1.683E-007     0.000E+000     0.000E+000     4.130E-012     1.187E-013     0.000E+000     6.032E-014     0.000E+000     4.206E-011     8.500E-002
      5.231E+015     2.198E-007     0.000E+000     0.000E+000     4.675E-012     1.326E-013     0.000E+000     6.925E-014     0.000E+000     4.783E-011     8.500E-002
      5.605E+015     2.974E-007     0.000E+000     0.000E+000     5.291E-012     1.465E-013     0.000E+000     7.951E-014     0.000E+000     5.438E-011     8.500E-002
      6.006E+015     4.140E-007     0.000E+000     0.000E+000     5.989E-012     1.596E-013     0.000E+000     9.129E-014     0.000E+000     6.182E-011     8.500E-002
      6.436E+015     5.871E-007     0.000E+000     0.000E+000     6.778E-012     1.709E-013     0.000E+000     1.048E-013     0.000E+000     7.026E-011     8.500E-002
      6.896E+015     8.408E-007     0.000E+000     0.000E+000     7.673E-012     1.794E-013     0.000E+000     1.203E-013     0.000E+000     7.986E-011     8.500E-002
      7.389E+015     1.207E-006     0.000E+000     0.000E+000     8.689E-012     1.841E-013     0.000E+000     1.382E-013     0.000E+000     9.075E-011     8.500E-002
      7.918E+015     1.729E-006     0.000E+000     0.000E+000     9.842E-012     1.845E-013     0.000E+000     1.586E-013     0.000E+000     1.031E-010     8.500E-002
      8.484E+015     2.458E-006     0.000E+000     0.000E+000     1.116E-011     1.807E-013     0.000E+000     1.821E-013     0.000E+000     1.172E-010     8.500E-002
      9.091E+015     3.459E-006     0.000E+000     0.000E+000     1.266E-011     1.732E-013     0.000E+000     2.091E-013     0.000E+000     1.333E-010     8.500E-002
      9.741E+015     4.810E-006     0.000E+000     0.000E+000     1.438E-011     1.631E-013     0.000E+000     2.401E-013     0.000E+000     1.516E-010     8.500E-002
      1.044E+016     6.597E-006     0.000E+000     0.000E+000     1.636E-011     1.512E-013     0.000E+000     2.757E-013     0.000E+000     1.725E-010     8.500E-002
      1.118E+016     8.911E-006     0.000E+000     0.000E+000     1.865E-011     1.387E-013     0.000E+000     3.165E-013     0.000E+000     1.963E-010     8.500E-002
      1.198E+016     1.184E-005     0.000E+000     0.000E+000     2.134E-011     1.262E-013     0.000E+000     3.634E-013     0.000E+000     2.235E-010     8.500E-002
      1.284E+016     1.547E-005     0.000E+000     0.000E+000     2.450E-011     1.142E-013     0.000E+000     4.173E-013     0.000E+000     2.545E-010     8.500E-002
      1.376E+016     1.984E-005     0.000E+000     0.000E+000     2.828E-011     1.031E-013     0.000E+000     4.791E-013     0.000E+000     2.895E-010     8.500E-002
      1.474E+016     2.497E-005     0.000E+000     0.000E+000     3.286E-011     9.288E-014     0.000E+000     5.501E-013     0.000E+000     3.284E-010     8.500E-002
      1.580E+016     3.084E-005     0.000E+000     0.000E+000     3.853E-011     8.377E-014     0.000E+000     6.315E-013     0.000E+000     3.710E-010     8.500E-002
      1.693E+016     3.742E-005     0.000E+000     0.000E+000     4.568E-011     7.571E-014     0.000E+000     7.251E-013     0.000E+000     4.162E-010     8.500E-002
      1.814E+016     4.465E-005     0.000E+000     0.000E+000     5.489E-011     6.865E-014     0.000E+000     8.325E-013     0.000E+000     4.621E-010     8.500E-002
      1.944E+016     5.249E-005     0.000E+000     0.000E+000     6.687E-011     6.249E-014     0.000E+000     9.558E-013     0.000E+000     5.054E-010     8.500E-002
      2.083E+016     6.093E-005     0.000E+000     0.000E+000     8.248E-011     5.713E-014     0.000E+000     1.097E-012     0.000E+000     5.423E-010     8.500E-002
      2.232E+016     7.002E-005     0.000E+000     0.000E+000     1.027E-010     5.247E-014     0.000E+000     1.260E-012     0.000E+000     5.688E-010     8.500E-002
      2.391E+016     7.990E-005     0.000E+000     0.000E+000     1.285E-010     4.843E-014     0.000E+000     1.446E-012     0.000E+000     5.819E-010     8.500E-002
      2.562E+016     9.077E-005     0.000E+000     0.000E+000     1.613E-010     4.493E-014     0.000E+000     1.661E-012     0.000E+000     5.800E-010     8.500E-002
      2.745E+016     1.029E-004     0.000E+000     0.000E+000     2.029E-010     4.189E-014     0.000E+000     1.906E-012     0.000E+000     5.627E-010     8.500E-002
      2.942E+016     1.165E-004     0.000E+000     0.000E+000     2.566E-010     3.927E-014     0.000E+000     2.189E-012     0.000E+000     5.323E-010     8.500E-002
      3.152E+016     1.319E-004     0.000E+000     0.000E+000     3.270E-010     3.704E-014     0.000E+000     2.512E-012     0.000E+000     4.939E-010     8.500E-002
      3.378E+016     1.488E-004     0.000E+000     0.000E+000     4.209E-010     3.514E-014     0.000E+000     2.884E-012     0.000E+000     4.530E-010     8.500E-002
      3.619E+016     1.669E-004     0.000E+000     0.000E+000     5.468E-010     3.353E-014     0.000E+000     3.310E-012     0.000E+000     4.145E-010     8.500E-002
      3.878E+016     1.853E-004     0.000E+000     0.000E+000     7.146E-010     3.213E-014     0.000E+000     3.799E-012     0.000E+000     3.808E-010     8.500E-002
      4.155E+016     2.030E-004     0.000E+000     0.000E+000     9.333E-010     3.087E-014     0.000E+000     4.360E-012     0.000E+000     3.526E-010     8.500E-002
      4.452E+016     2.191E-004     0.000E+000     0.000E+000     1.209E-009     2.967E-014     0.000E+000     5.003E-012     0.000E+000     3.302E-010     8.500E-002
      4.771E+016     2.326E-004     0.000E+000     0.000E+000     1.544E-009     2.850E-014     0.000E+000     5.741E-012     0.000E+000     3.136E-010     8.500E-002
      5.112E+016     2.432E-004     0.000E+000     0.000E+000     1.933E-009     2.734E-014     0.000E+000     6.587E-012     0.000E+000     3.029E-010     8.500E-002
      5.478E+016     2.510E-004     0.000E+000     0.000E+000     2.370E-009     2.619E-014     0.000E+000     7.558E-012     0.000E+000     2.978E-010     8.500E-002
      5.869E+016     2.564E-004     0.000E+000     0.000E+000     2.847E-009     2.508E-014     0.000E+000     8.672E-012     0.000E+000     2.979E-010     8.500E-002
      6.289E+016     2.600E-004     0.000E+000     0.000E+000     3.363E-009     2.403E-014     0.000E+000     9.950E-012     0.000E+000     3.026E-010     8.500E-002
      6.739E+016     2.625E-004     0.000E+000     0.000E+000     3.923E-009     2.304E-014     0.000E+000     1.142E-011     0.000E+000     3.112E-010     8.500E-002
      7.221E+016     2.643E-004     0.000E+000     0.000E+000     4.535E-009     2.214E-014     0.000E+000     1.310E-011     0.000E+000     3.227E-010     8.500E-002
      7.737E+016     2.657E-004     0.000E+000     0.000E+000     5.209E-009     2.132E-014     0.000E+000     1.502E-011     0.000E+000     3.361E-010     8.500E-002
      8.291E+016     2.670E-004     0.000E+000     0.000E+000     5.954E-009     2.058E-014     0.000E+000     1.724E-011     0.000E+000     3.503E-010     8.500E-002
      8.884E+016     2.682E-004     0.000E+000     0.000E+000     6.777E-009     1.990E-014     0.000E+000     1.977E-011     0.000E+000     3.644E-010     8.500E-002
      9.519E+016     2.693E-004     0.000E+000     0.000E+000     7.686E-009     1.928E-014     0.000E+000     2.267E-011     0.000E+000     3.775E-010     8.500E-002
      1.020E+017     2.704E-004     0.000E+000     0.000E+000     8.684E-009     1.871E-014     0.000E+000     2.600E-011     0.000E+000     3.889E-010     8.500E-002
      1.093E+017     2.714E-004     0.000E+000     0.000E+000     9.775E-009     1.819E-014     0.000E+000     2.980E-011     0.000E+000     3.982E-010     8.500E-002
      1.171E+017     2.724E-004     0.000E+000     0.000E+000     1.096E-008     1.771E-014     0.000E+000     3.415E-011     0.000E+000     4.050E-010     8.500E-002
      1.255E+017     2.735E-004     0.000E+000     0.000E+000     1.226E-008     1.734E-014     0.000E+000     3.913E-011     0.000E+000     4.151E-010     8.500E-002
      1.345E+017     2.745E-004     0.000E+000     0.000E+000     1.368E-008     1.705E-014     0.000E+000     4.483E-011     0.000E+000     4.269E-010     8.500E-002
      1.441E+017     2.756E-004     0.000E+000     0.000E+000     1.524E-008     1.678E-014     0.000E+000     5.134E-011     0.000E+000     4.367E-010     8.500E-002
      1.544E+017     2.767E-004     0.000E+000     0.000E+000     1.695E-008     1.652E-014     0.000E+000     5.877E-011     0.000E+000     4.440E-010     8.500E-002
      1.654E+017     2.779E-004     0.000E+000     0.000E+000     1.882E-008     1.628E-014     0.000E+000     6.725E-011     0.000E+000     4.496E-010     8.500E-002
      1.773E+017     2.791E-004     0.000E+000     0.000E+000     2.088E-008     1.606E-014     0.000E+000     7.692E-011     0.000E+000     4.571E-010     8.500E-002
      1.899E+017     2.803E-004     0.000E+000     0.000E+000     2.315E-008     1.586E-014     0.000E+000     8.803E-011     0.000E+000     4.792E-010     8.500E-002
      2.035E+017     2.816E-004     0.000E+000     0.000E+000     2.567E-008     1.571E-014     0.000E+000     1.009E-010     0.000E+000     5.297E-010     8.500E-002
      2.181E+017     2.829E-004     0.000E+000     0.000E+000     2.850E-008     1.556E-014     0.000E+000     1.157E-010     0.000E+000     6.026E-010     8.500E-002
      2.337E+017     2.841E-004     0.000E+000     0.000E+000     3.167E-008     1.543E-014     0.000E+000     1.326E-010     0.000E+000     6.898E-010     8.500E-002
      2.504E+017     2.854E-004     0.000E+000     0.000E+000     3.525E-008     1.529E-014     0.000E+000     1.520E-010     0.000E+000     7.902E-010     8.500E-002
      2.683E+017     2.867E-004     0.000E+000     0.000E+000     3.930E-008     1.516E-014     0.000E+000     1.742E-010     0.000E+000     9.051E-010     8.500E-002
      2.875E+017     2.880E-004     0.000E+000     0.000E+000     4.389E-008     1.503E-014     0.000E+000     1.996E-010     0.000E+000     1.036E-009     8.500E-002
      3.080E+017     2.893E-004     0.000E+000     0.000E+000     4.913E-008     1.491E-014     0.000E+000     2.286E-010     0.000E+000     1.186E-009     8.500E-002
      3.301E+017     2.907E-004     0.000E+000     0.000E+000     5.511E-008     1.479E-014     0.000E+000     2.616E-010     0.000E+000     1.358E-009     8.500E-002
