  ** CALCULATED NUMBER DENSITIES (/CM^3) ** 


   RADIUS         H              RH             GH             H+             H-             GH2            H2+            RH2            H3+            He          
      1.020E+014     0.000E+000     0.000E+000     0.000E+000     0.000E+000     0.000E+000     0.000E+000     0.000E+000     0.000E+000     0.000E+000     1.842E+007
      1.093E+014     7.247E-002     0.000E+000     0.000E+000     7.177E-007     1.220E-008     0.000E+000     5.706E-009     0.000E+000     5.727E-006     1.604E+007
      1.171E+014     1.222E-001     0.000E+000     0.000E+000     7.117E-007     1.220E-008     0.000E+000     5.706E-009     0.000E+000     5.703E-006     1.397E+007
      1.255E+014     1.553E-001     0.000E+000     0.000E+000     7.057E-007     1.220E-008     0.000E+000     5.706E-009     0.000E+000     5.678E-006     1.217E+007
      1.345E+014     1.762E-001     0.000E+000     0.000E+000     6.997E-007     1.220E-008     0.000E+000     5.706E-009     0.000E+000     5.653E-006     1.060E+007
      1.441E+014     1.879E-001     0.000E+000     0.000E+000     6.936E-007     1.220E-008     0.000E+000     5.706E-009     0.000E+000     5.628E-006     9.230E+006
      1.544E+014     1.928E-001     0.000E+000     0.000E+000     6.876E-007     1.220E-008     0.000E+000     5.706E-009     0.000E+000     5.602E-006     8.039E+006
      1.654E+014     1.927E-001     0.000E+000     0.000E+000     6.815E-007     1.220E-008     0.000E+000     5.705E-009     0.000E+000     5.576E-006     7.002E+006
      1.773E+014     1.892E-001     0.000E+000     0.000E+000     6.754E-007     1.219E-008     0.000E+000     5.705E-009     0.000E+000     5.550E-006     6.098E+006
      1.899E+014     1.836E-001     0.000E+000     0.000E+000     6.694E-007     1.219E-008     0.000E+000     5.705E-009     0.000E+000     5.524E-006     5.311E+006
      2.035E+014     1.768E-001     0.000E+000     0.000E+000     6.633E-007     1.219E-008     0.000E+000     5.705E-009     0.000E+000     5.497E-006     4.626E+006
      2.181E+014     1.695E-001     0.000E+000     0.000E+000     6.572E-007     1.219E-008     0.000E+000     5.705E-009     0.000E+000     5.470E-006     4.029E+006
      2.337E+014     1.620E-001     0.000E+000     0.000E+000     6.511E-007     1.219E-008     0.000E+000     5.705E-009     0.000E+000     5.443E-006     3.509E+006
      2.504E+014     1.545E-001     0.000E+000     0.000E+000     6.450E-007     1.219E-008     0.000E+000     5.705E-009     0.000E+000     5.415E-006     3.056E+006
      2.683E+014     1.470E-001     0.000E+000     0.000E+000     6.390E-007     1.219E-008     0.000E+000     5.705E-009     0.000E+000     5.387E-006     2.662E+006
      2.875E+014     1.396E-001     0.000E+000     0.000E+000     6.329E-007     1.219E-008     0.000E+000     5.705E-009     0.000E+000     5.359E-006     2.318E+006
      3.080E+014     1.324E-001     0.000E+000     0.000E+000     6.268E-007     1.218E-008     0.000E+000     5.705E-009     0.000E+000     5.330E-006     2.019E+006
      3.301E+014     1.253E-001     0.000E+000     0.000E+000     6.207E-007     1.218E-008     0.000E+000     5.705E-009     0.000E+000     5.302E-006     1.759E+006
      3.537E+014     1.184E-001     0.000E+000     0.000E+000     6.146E-007     1.218E-008     0.000E+000     5.705E-009     0.000E+000     5.273E-006     1.532E+006
      3.790E+014     1.117E-001     0.000E+000     0.000E+000     6.085E-007     1.218E-008     0.000E+000     5.705E-009     0.000E+000     5.243E-006     1.334E+006
      4.061E+014     1.052E-001     0.000E+000     0.000E+000     6.025E-007     1.218E-008     0.000E+000     5.705E-009     0.000E+000     5.214E-006     1.162E+006
      4.351E+014     9.888E-002     0.000E+000     0.000E+000     5.964E-007     1.217E-008     0.000E+000     5.705E-009     0.000E+000     5.184E-006     1.012E+006
      4.662E+014     9.281E-002     0.000E+000     0.000E+000     5.903E-007     1.217E-008     0.000E+000     5.705E-009     0.000E+000     5.154E-006     8.814E+005
      4.996E+014     8.700E-002     0.000E+000     0.000E+000     5.843E-007     1.217E-008     0.000E+000     5.705E-009     0.000E+000     5.123E-006     7.677E+005
      5.353E+014     8.148E-002     0.000E+000     0.000E+000     5.782E-007     1.216E-008     0.000E+000     5.705E-009     0.000E+000     5.092E-006     6.686E+005
      5.736E+014     7.628E-002     0.000E+000     0.000E+000     5.721E-007     1.216E-008     0.000E+000     5.705E-009     0.000E+000     5.061E-006     5.824E+005
      6.146E+014     7.139E-002     0.000E+000     0.000E+000     5.661E-007     1.216E-008     0.000E+000     5.705E-009     0.000E+000     5.030E-006     5.072E+005
      6.586E+014     6.681E-002     0.000E+000     0.000E+000     5.601E-007     1.215E-008     0.000E+000     5.705E-009     0.000E+000     4.999E-006     4.418E+005
      7.057E+014     6.254E-002     0.000E+000     0.000E+000     5.540E-007     1.215E-008     0.000E+000     5.705E-009     0.000E+000     4.967E-006     3.848E+005
      7.561E+014     5.856E-002     0.000E+000     0.000E+000     5.480E-007     1.215E-008     0.000E+000     5.705E-009     0.000E+000     4.935E-006     3.351E+005
      8.102E+014     5.484E-002     0.000E+000     0.000E+000     5.420E-007     1.214E-008     0.000E+000     5.705E-009     0.000E+000     4.902E-006     2.919E+005
      8.682E+014     5.137E-002     0.000E+000     0.000E+000     5.360E-007     1.214E-008     0.000E+000     5.705E-009     0.000E+000     4.870E-006     2.542E+005
      9.303E+014     4.813E-002     0.000E+000     0.000E+000     5.300E-007     1.213E-008     0.000E+000     5.705E-009     0.000E+000     4.837E-006     2.214E+005
      9.968E+014     4.510E-002     0.000E+000     0.000E+000     5.241E-007     1.212E-008     0.000E+000     5.705E-009     0.000E+000     4.804E-006     1.928E+005
      1.068E+015     4.227E-002     0.000E+000     0.000E+000     5.181E-007     1.212E-008     0.000E+000     5.705E-009     0.000E+000     4.771E-006     1.680E+005
      1.144E+015     3.961E-002     0.000E+000     0.000E+000     5.121E-007     1.211E-008     0.000E+000     5.705E-009     0.000E+000     4.737E-006     1.463E+005
      1.226E+015     3.712E-002     0.000E+000     0.000E+000     5.062E-007     1.210E-008     0.000E+000     5.705E-009     0.000E+000     4.703E-006     1.274E+005
      1.314E+015     3.479E-002     0.000E+000     0.000E+000     5.002E-007     1.210E-008     0.000E+000     5.705E-009     0.000E+000     4.669E-006     1.110E+005
      1.408E+015     3.260E-002     0.000E+000     0.000E+000     4.943E-007     1.209E-008     0.000E+000     5.705E-009     0.000E+000     4.635E-006     9.665E+004
      1.509E+015     3.054E-002     0.000E+000     0.000E+000     4.884E-007     1.208E-008     0.000E+000     5.705E-009     0.000E+000     4.600E-006     8.418E+004
      1.617E+015     2.862E-002     0.000E+000     0.000E+000     4.825E-007     1.207E-008     0.000E+000     5.705E-009     0.000E+000     4.565E-006     7.332E+004
      1.732E+015     2.680E-002     0.000E+000     0.000E+000     4.767E-007     1.206E-008     0.000E+000     5.705E-009     0.000E+000     4.530E-006     6.386E+004
      1.856E+015     2.510E-002     0.000E+000     0.000E+000     4.708E-007     1.205E-008     0.000E+000     5.705E-009     0.000E+000     4.495E-006     5.562E+004
      1.989E+015     2.351E-002     0.000E+000     0.000E+000     4.649E-007     1.204E-008     0.000E+000     5.705E-009     0.000E+000     4.459E-006     4.844E+004
      2.131E+015     2.201E-002     0.000E+000     0.000E+000     4.591E-007     1.203E-008     0.000E+000     5.705E-009     0.000E+000     4.424E-006     4.219E+004
      2.283E+015     2.061E-002     0.000E+000     0.000E+000     4.533E-007     1.201E-008     0.000E+000     5.705E-009     0.000E+000     4.388E-006     3.674E+004
      2.447E+015     1.930E-002     0.000E+000     0.000E+000     4.475E-007     1.200E-008     0.000E+000     5.705E-009     0.000E+000     4.352E-006     3.200E+004
      2.622E+015     1.809E-002     0.000E+000     0.000E+000     4.417E-007     1.198E-008     0.000E+000     5.705E-009     0.000E+000     4.315E-006     2.787E+004
      2.809E+015     1.697E-002     0.000E+000     0.000E+000     4.359E-007     1.196E-008     0.000E+000     5.705E-009     0.000E+000     4.279E-006     2.428E+004
      3.010E+015     1.597E-002     0.000E+000     0.000E+000     4.302E-007     1.193E-008     0.000E+000     5.705E-009     0.000E+000     4.242E-006     2.114E+004
      3.226E+015     1.510E-002     0.000E+000     0.000E+000     4.245E-007     1.190E-008     0.000E+000     5.705E-009     0.000E+000     4.205E-006     1.842E+004
      3.456E+015     1.439E-002     0.000E+000     0.000E+000     4.187E-007     1.186E-008     0.000E+000     5.705E-009     0.000E+000     4.167E-006     1.604E+004
      3.703E+015     1.390E-002     0.000E+000     0.000E+000     4.131E-007     1.180E-008     0.000E+000     5.705E-009     0.000E+000     4.130E-006     1.397E+004
      3.968E+015     1.370E-002     0.000E+000     0.000E+000     4.074E-007     1.172E-008     0.000E+000     5.705E-009     0.000E+000     4.092E-006     1.217E+004
      4.252E+015     1.389E-002     0.000E+000     0.000E+000     4.018E-007     1.161E-008     0.000E+000     5.705E-009     0.000E+000     4.054E-006     1.060E+004
      4.556E+015     1.457E-002     0.000E+000     0.000E+000     3.962E-007     1.145E-008     0.000E+000     5.705E-009     0.000E+000     4.016E-006     9.230E+003
      4.882E+015     1.592E-002     0.000E+000     0.000E+000     3.906E-007     1.123E-008     0.000E+000     5.704E-009     0.000E+000     3.978E-006     8.039E+003
      5.231E+015     1.810E-002     0.000E+000     0.000E+000     3.851E-007     1.092E-008     0.000E+000     5.704E-009     0.000E+000     3.940E-006     7.002E+003
      5.605E+015     2.134E-002     0.000E+000     0.000E+000     3.796E-007     1.051E-008     0.000E+000     5.704E-009     0.000E+000     3.901E-006     6.098E+003
      6.006E+015     2.587E-002     0.000E+000     0.000E+000     3.742E-007     9.972E-009     0.000E+000     5.704E-009     0.000E+000     3.863E-006     5.311E+003
      6.436E+015     3.195E-002     0.000E+000     0.000E+000     3.689E-007     9.302E-009     0.000E+000     5.704E-009     0.000E+000     3.824E-006     4.626E+003
      6.896E+015     3.985E-002     0.000E+000     0.000E+000     3.637E-007     8.503E-009     0.000E+000     5.704E-009     0.000E+000     3.785E-006     4.029E+003
      7.389E+015     4.984E-002     0.000E+000     0.000E+000     3.587E-007     7.600E-009     0.000E+000     5.704E-009     0.000E+000     3.747E-006     3.509E+003
      7.918E+015     6.215E-002     0.000E+000     0.000E+000     3.539E-007     6.635E-009     0.000E+000     5.704E-009     0.000E+000     3.709E-006     3.056E+003
      8.484E+015     7.696E-002     0.000E+000     0.000E+000     3.494E-007     5.659E-009     0.000E+000     5.704E-009     0.000E+000     3.672E-006     2.662E+003
      9.091E+015     9.435E-002     0.000E+000     0.000E+000     3.452E-007     4.725E-009     0.000E+000     5.704E-009     0.000E+000     3.636E-006     2.318E+003
      9.741E+015     1.143E-001     0.000E+000     0.000E+000     3.415E-007     3.874E-009     0.000E+000     5.704E-009     0.000E+000     3.601E-006     2.019E+003
      1.044E+016     1.365E-001     0.000E+000     0.000E+000     3.384E-007     3.129E-009     0.000E+000     5.704E-009     0.000E+000     3.569E-006     1.759E+003
      1.118E+016     1.606E-001     0.000E+000     0.000E+000     3.361E-007     2.500E-009     0.000E+000     5.704E-009     0.000E+000     3.538E-006     1.532E+003
      1.198E+016     1.859E-001     0.000E+000     0.000E+000     3.349E-007     1.981E-009     0.000E+000     5.704E-009     0.000E+000     3.509E-006     1.334E+003
      1.284E+016     2.114E-001     0.000E+000     0.000E+000     3.349E-007     1.561E-009     0.000E+000     5.704E-009     0.000E+000     3.479E-006     1.162E+003
      1.376E+016     2.362E-001     0.000E+000     0.000E+000     3.367E-007     1.227E-009     0.000E+000     5.704E-009     0.000E+000     3.446E-006     1.012E+003
      1.474E+016     2.589E-001     0.000E+000     0.000E+000     3.408E-007     9.631E-010     0.000E+000     5.704E-009     0.000E+000     3.406E-006     8.814E+002
      1.580E+016     2.786E-001     0.000E+000     0.000E+000     3.480E-007     7.566E-010     0.000E+000     5.704E-009     0.000E+000     3.351E-006     7.677E+002
      1.693E+016     2.944E-001     0.000E+000     0.000E+000     3.594E-007     5.956E-010     0.000E+000     5.704E-009     0.000E+000     3.274E-006     6.686E+002
      1.814E+016     3.059E-001     0.000E+000     0.000E+000     3.761E-007     4.704E-010     0.000E+000     5.704E-009     0.000E+000     3.166E-006     5.824E+002
      1.944E+016     3.132E-001     0.000E+000     0.000E+000     3.991E-007     3.729E-010     0.000E+000     5.704E-009     0.000E+000     3.016E-006     5.072E+002
      2.083E+016     3.167E-001     0.000E+000     0.000E+000     4.287E-007     2.969E-010     0.000E+000     5.703E-009     0.000E+000     2.818E-006     4.418E+002
      2.232E+016     3.170E-001     0.000E+000     0.000E+000     4.647E-007     2.375E-010     0.000E+000     5.703E-009     0.000E+000     2.575E-006     3.848E+002
      2.391E+016     3.150E-001     0.000E+000     0.000E+000     5.066E-007     1.909E-010     0.000E+000     5.703E-009     0.000E+000     2.294E-006     3.351E+002
      2.562E+016     3.117E-001     0.000E+000     0.000E+000     5.537E-007     1.543E-010     0.000E+000     5.702E-009     0.000E+000     1.992E-006     2.919E+002
      2.745E+016     3.077E-001     0.000E+000     0.000E+000     6.069E-007     1.253E-010     0.000E+000     5.702E-009     0.000E+000     1.683E-006     2.542E+002
      2.942E+016     3.036E-001     0.000E+000     0.000E+000     6.684E-007     1.023E-010     0.000E+000     5.701E-009     0.000E+000     1.387E-006     2.214E+002
      3.152E+016     2.992E-001     0.000E+000     0.000E+000     7.419E-007     8.403E-011     0.000E+000     5.700E-009     0.000E+000     1.120E-006     1.928E+002
      3.378E+016     2.940E-001     0.000E+000     0.000E+000     8.316E-007     6.944E-011     0.000E+000     5.698E-009     0.000E+000     8.952E-007     1.680E+002
      3.619E+016     2.871E-001     0.000E+000     0.000E+000     9.411E-007     5.771E-011     0.000E+000     5.697E-009     0.000E+000     7.134E-007     1.463E+002
      3.878E+016     2.777E-001     0.000E+000     0.000E+000     1.071E-006     4.816E-011     0.000E+000     5.694E-009     0.000E+000     5.707E-007     1.274E+002
      4.155E+016     2.651E-001     0.000E+000     0.000E+000     1.218E-006     4.029E-011     0.000E+000     5.692E-009     0.000E+000     4.603E-007     1.110E+002
      4.452E+016     2.491E-001     0.000E+000     0.000E+000     1.375E-006     3.374E-011     0.000E+000     5.689E-009     0.000E+000     3.754E-007     9.665E+001
      4.771E+016     2.304E-001     0.000E+000     0.000E+000     1.529E-006     2.823E-011     0.000E+000     5.686E-009     0.000E+000     3.106E-007     8.418E+001
      5.112E+016     2.098E-001     0.000E+000     0.000E+000     1.668E-006     2.358E-011     0.000E+000     5.682E-009     0.000E+000     2.613E-007     7.332E+001
      5.478E+016     1.886E-001     0.000E+000     0.000E+000     1.780E-006     1.968E-011     0.000E+000     5.678E-009     0.000E+000     2.237E-007     6.386E+001
      5.869E+016     1.678E-001     0.000E+000     0.000E+000     1.863E-006     1.641E-011     0.000E+000     5.674E-009     0.000E+000     1.949E-007     5.562E+001
      6.289E+016     1.482E-001     0.000E+000     0.000E+000     1.917E-006     1.369E-011     0.000E+000     5.670E-009     0.000E+000     1.725E-007     4.844E+001
      6.739E+016     1.303E-001     0.000E+000     0.000E+000     1.947E-006     1.144E-011     0.000E+000     5.666E-009     0.000E+000     1.545E-007     4.219E+001
      7.221E+016     1.143E-001     0.000E+000     0.000E+000     1.960E-006     9.572E-012     0.000E+000     5.662E-009     0.000E+000     1.395E-007     3.674E+001
      7.737E+016     1.001E-001     0.000E+000     0.000E+000     1.961E-006     8.028E-012     0.000E+000     5.657E-009     0.000E+000     1.265E-007     3.200E+001
      8.291E+016     8.756E-002     0.000E+000     0.000E+000     1.952E-006     6.747E-012     0.000E+000     5.652E-009     0.000E+000     1.149E-007     2.787E+001
      8.884E+016     7.659E-002     0.000E+000     0.000E+000     1.936E-006     5.683E-012     0.000E+000     5.646E-009     0.000E+000     1.041E-007     2.428E+001
      9.519E+016     6.699E-002     0.000E+000     0.000E+000     1.912E-006     4.796E-012     0.000E+000     5.640E-009     0.000E+000     9.390E-008     2.114E+001
      1.020E+017     5.858E-002     0.000E+000     0.000E+000     1.881E-006     4.054E-012     0.000E+000     5.632E-009     0.000E+000     8.426E-008     1.842E+001
      1.093E+017     5.122E-002     0.000E+000     0.000E+000     1.845E-006     3.432E-012     0.000E+000     5.623E-009     0.000E+000     7.514E-008     1.604E+001
      1.171E+017     4.478E-002     0.000E+000     0.000E+000     1.802E-006     2.910E-012     0.000E+000     5.613E-009     0.000E+000     6.656E-008     1.397E+001
      1.255E+017     3.915E-002     0.000E+000     0.000E+000     1.755E-006     2.483E-012     0.000E+000     5.602E-009     0.000E+000     5.942E-008     1.217E+001
      1.345E+017     3.422E-002     0.000E+000     0.000E+000     1.705E-006     2.126E-012     0.000E+000     5.589E-009     0.000E+000     5.323E-008     1.060E+001
      1.441E+017     2.992E-002     0.000E+000     0.000E+000     1.654E-006     1.822E-012     0.000E+000     5.575E-009     0.000E+000     4.742E-008     9.230E+000
      1.544E+017     2.617E-002     0.000E+000     0.000E+000     1.603E-006     1.563E-012     0.000E+000     5.558E-009     0.000E+000     4.199E-008     8.039E+000
      1.654E+017     2.289E-002     0.000E+000     0.000E+000     1.550E-006     1.341E-012     0.000E+000     5.539E-009     0.000E+000     3.704E-008     7.002E+000
      1.773E+017     2.002E-002     0.000E+000     0.000E+000     1.498E-006     1.152E-012     0.000E+000     5.519E-009     0.000E+000     3.280E-008     6.098E+000
      1.899E+017     1.752E-002     0.000E+000     0.000E+000     1.447E-006     9.912E-013     0.000E+000     5.500E-009     0.000E+000     2.994E-008     5.311E+000
      2.035E+017     1.532E-002     0.000E+000     0.000E+000     1.397E-006     8.547E-013     0.000E+000     5.489E-009     0.000E+000     2.883E-008     4.626E+000
      2.181E+017     1.341E-002     0.000E+000     0.000E+000     1.351E-006     7.378E-013     0.000E+000     5.482E-009     0.000E+000     2.856E-008     4.029E+000
      2.337E+017     1.173E-002     0.000E+000     0.000E+000     1.307E-006     6.369E-013     0.000E+000     5.475E-009     0.000E+000     2.848E-008     3.509E+000
      2.504E+017     1.026E-002     0.000E+000     0.000E+000     1.267E-006     5.499E-013     0.000E+000     5.466E-009     0.000E+000     2.841E-008     3.056E+000
      2.683E+017     8.978E-003     0.000E+000     0.000E+000     1.231E-006     4.748E-013     0.000E+000     5.455E-009     0.000E+000     2.834E-008     2.662E+000
      2.875E+017     7.855E-003     0.000E+000     0.000E+000     1.197E-006     4.101E-013     0.000E+000     5.443E-009     0.000E+000     2.827E-008     2.318E+000
      3.080E+017     6.873E-003     0.000E+000     0.000E+000     1.167E-006     3.543E-013     0.000E+000     5.430E-009     0.000E+000     2.819E-008     2.019E+000
      3.301E+017     6.014E-003     0.000E+000     0.000E+000     1.140E-006     3.061E-013     0.000E+000     5.413E-009     0.000E+000     2.809E-008     1.759E+000
